Time (s),Channel 1 (V),Channel 2 (V)
-0.01024,1.079422476426231,3.557006023754416
-0.0102375,1.07965541994357,3.556968698566382
-0.010235,1.080060006052632,3.557292183529345
-0.0102325,1.081396366231047,3.558822516238745
-0.01023,1.082328140300401,3.559394835788603
-0.0102275,1.083541898627587,3.561870739928203
-0.010225,1.084915039361372,3.563550373389741
-0.0102225,1.086950230091803,3.564259551962389
-0.01022,1.08848275323219,3.56491896361766
-0.0102175,1.089058981932975,3.566349762492305
-0.010215,1.090162398594052,3.568166254976633
-0.0102125,1.092025946732761,3.568415089563529
-0.01021,1.093582990243392,3.570219140318514
-0.0102075,1.095262635605254,3.571973424156119
-0.010205,1.097150704114209,3.573964100851275
-0.0102025,1.098695487439717,3.57466083769458
-0.0102,1.099087813363656,3.575494433560676
-0.0101975,1.100681637429657,3.577908129053553
-0.010195,1.101821834646105,3.579413578304266
-0.0101925,1.103047853158412,3.581404254999421
-0.01019,1.104531335558306,3.581914365902556
-0.0101875,1.106345842956522,3.585497583953835
-0.010185,1.107265356840753,3.587015474933892
-0.0101825,1.108466854982815,3.58798592982278
-0.01018,1.110048418863693,3.590436950503691
-0.0101775,1.111262177190878,3.592937738101979
-0.010175,1.112500455888309,3.594169469307108
-0.0101725,1.113996198473326,3.595774452392579
-0.01017,1.113959417917956,3.597852221193147
-0.0101675,1.115651323464942,3.599320345255824
-0.010165,1.117404529937543,3.601422997515082
-0.0101625,1.118348564192021,3.603525649774341
-0.01016,1.11962362344482,3.60491912346095
-0.0101575,1.121278748436438,3.605852253161805
-0.010155,1.121891757692592,3.607233285119068
-0.0101525,1.123583663239577,3.608925360309951
-0.01015,1.123816606756916,3.610331275725906
-0.0101475,1.124821941937008,3.610766736252971
-0.010145,1.126072480819563,3.611301730614794
-0.0101425,1.12689391322281,3.61216020993958
-0.01014,1.127764386366549,3.611762074600549
-0.0101375,1.12976279654161,3.61456146370311
-0.010135,1.130571968759735,3.614972040771487
-0.0101325,1.132276134491844,3.615245758817072
-0.01013,1.132680720600905,3.615706102802827
-0.0101275,1.134188723371045,3.617199110324194
-0.010125,1.135647685400692,3.618891185515076
-0.0101225,1.137008565949354,3.620234892284306
-0.01012,1.137400891873293,3.621479065218779
-0.0101175,1.138234584461662,3.62345730018459
-0.010115,1.140122652970616,3.625336001315642
-0.0101125,1.141029906669725,3.62640599003929
-0.01011,1.141532574259772,3.626418431768635
-0.0101075,1.143616805730696,3.626667266355529
-0.010105,1.144560839985173,3.627252027634732
-0.0101025,1.145553914980143,3.628931661096269
-0.0101,1.146878014973436,3.63046199380567
-0.0100975,1.148067252930375,3.630872570874046
-0.010095,1.149379092738545,3.63022560094812
-0.0100925,1.150347647363268,3.631619074634729
-0.01009,1.151414283468977,3.632402903583447
-0.0100875,1.152885505683747,3.633460450577749
-0.010085,1.154123784381178,3.634517997572051
-0.0100825,1.155300762152994,3.636023446822762
-0.01008,1.156968147329734,3.636670416748688
-0.0100775,1.15913820009652,3.637976798329884
-0.010075,1.159861551018781,3.638909928030738
-0.0100725,1.161332773233551,3.640589561492276
-0.01007,1.16236262878389,3.642007918637574
-0.0100675,1.163895151924276,3.642741980668914
-0.010065,1.165329593583678,3.644570914882588
-0.0100625,1.166898897279432,3.646151014509368
-0.01006,1.168149436161986,3.646748217517914
-0.0100575,1.169375454674294,3.647718672406803
-0.010055,1.170478871335372,3.649236563386859
-0.0100525,1.172428240769941,3.651687584067769
-0.01005,1.173519397245897,3.652496296475177
-0.0100475,1.174598293536729,3.654412322794265
-0.010045,1.176388280564698,3.656054631067769
-0.0100425,1.177540737966269,3.658381234455232
-0.01004,1.178595113886854,3.659364131073465
-0.0100375,1.180176677767731,3.661105973181727
-0.010035,1.182285429608902,3.662113753258649
-0.0100325,1.183425626825348,3.663345484463778
-0.01003,1.184541303671548,3.665709413039274
-0.0100275,1.185706021258242,3.667239745748676
-0.010025,1.186502933291242,3.668434151765771
-0.0100225,1.188109017542366,3.670001809663205
-0.01002,1.18907757216709,3.671693884854089
-0.0100175,1.190646875862844,3.673473052150383
-0.010015,1.191272145304121,3.675015826589129
-0.0100125,1.192105837892491,3.675836980725881
-0.01001,1.193062132332092,3.676284882982291
-0.0100075,1.194999241581538,3.677417080352661
-0.010005,1.196458203611186,3.678499510805652
-0.0100025,1.197794563789602,3.679096713814199
-0.01,1.198407573045756,3.679208689378301
-0.009997499999999999,1.200197560073726,3.681796569082004
-0.009995,1.201852685065342,3.681597501412489
-0.0099925,1.203372948020605,3.682767023970893
-0.009990000000000001,1.203924656351143,3.683737478859781
-0.0099875,1.205371358195667,3.685715713825592
-0.009985000000000001,1.206229571154283,3.686748377361204
-0.0099825,1.207357508185606,3.688004992025022
-0.009979999999999999,1.20855900632767,3.689174514583426
-0.0099775,1.21047159520687,3.691389142406787
-0.009974999999999999,1.211194946129132,3.693019008950946
-0.0099725,1.212727469269518,3.693690862335561
-0.00997,1.213965747966949,3.695494913090546
-0.009967500000000001,1.214983343332164,3.696552460084847
-0.009965,1.216515866472551,3.697025245799947
-0.009962499999999999,1.218170991464167,3.698966155577725
-0.00996,1.218808521090567,3.70072043941533
-0.009957499999999999,1.219164066459137,3.702711116110486
-0.009955,1.221174736819322,3.702760883027866
-0.0099525,1.221260558115184,3.704005055962337
-0.009950000000000001,1.222621438663846,3.704776443181711
-0.0099475,1.224276563655462,3.706642702583419
-0.009945000000000001,1.225465801612402,3.706916420629003
-0.0099425,1.22669182012471,3.708359661232992
-0.009939999999999999,1.227672634934557,3.709578950708774
-0.0099375,1.228935434002234,3.709367441309914
-0.009934999999999999,1.229572963628635,3.710138828529287
-0.0099325,1.23062733954922,3.710250804093389
-0.00993,1.231522333063205,3.71046231349225
-0.009927500000000001,1.233042596018467,3.710922657478005
-0.009925,1.233876288606836,3.711271025899657
-0.009922500000000001,1.235568194153821,3.711507418757206
-0.00992,1.236499968223177,3.712291247705925
-0.009917499999999999,1.238547419138732,3.712975542819885
-0.009915,1.239540494133701,3.714344133047804
-0.009912499999999999,1.240545829313795,3.71494133605635
-0.00991,1.242470678378118,3.714443666882562
-0.0099075,1.243132728374765,3.716272601096236
-0.009905000000000001,1.244113543184611,3.717043988315609
-0.0099025,1.246026132063812,3.718064210121877
-0.009900000000000001,1.247742557981043,3.720266396215892
-0.0098975,1.249458983898276,3.723488804116176
-0.009894999999999999,1.250979246853539,3.724558792839823
-0.0098925,1.252585331104662,3.725317738329851
-0.009889999999999999,1.253982992208694,3.727258648107628
-0.0098875,1.255196750535879,3.731389302250077
-0.009885,1.257207420896065,3.732695683831273
-0.009882500000000001,1.258654122740588,3.734076715788537
-0.00988,1.259794319957036,3.737286681959476
-0.009877500000000001,1.261412664393282,3.737759467674576
-0.009875,1.263374294012976,3.741367569184546
-0.009872499999999999,1.264269287526962,3.743134294751498
-0.00987,1.264870036597992,3.744925903777137
-0.0098675,1.266709064366455,3.746966347389672
-0.009865000000000001,1.268646173615902,3.749056557919586
-0.0098625,1.27019095694141,3.749554227093375
-0.009860000000000001,1.271772520822287,3.750512240252918
-0.0098575,1.273108881000704,3.75359778913041
-0.009854999999999999,1.274947908769167,3.7565713624438
-0.0098525,1.275364755063352,3.758002161318443
-0.009849999999999999,1.276149406911229,3.760303881247219
-0.0098475,1.278233638382153,3.763824890651774
-0.009845,1.279950064299385,3.766649163213026
-0.009842500000000001,1.281041220775339,3.769361460210176
-0.00984,1.28215689762154,3.771202836153196
-0.009837500000000001,1.283713941132171,3.77435059367741
-0.009835,1.284290169832955,3.778754965865443
-0.009832499999999999,1.286386661489004,3.779837396318435
-0.00983,1.286607344821219,3.780347507221569
-0.009827499999999999,1.288005005925251,3.781118894440941
-0.009825,1.289181983697067,3.781604121885386
-0.0098225,1.28983177350859,3.783420614369716
-0.009820000000000001,1.290542864245728,3.785722334298489
-0.0098175,1.291609500351437,3.786531046705897
-0.009815000000000001,1.293007161455468,3.786630580540654
-0.0098125,1.293816333673592,3.787800103099058
-0.009809999999999999,1.294956530890039,3.78775033618168
-0.0098075,1.296292891068455,3.789392644455183
-0.009804999999999999,1.297322746618794,3.790537283554898
-0.0098025,1.298597805871594,3.791905873782818
-0.0098,1.298806229018686,3.792627494084811
-0.009797500000000001,1.300277451233456,3.793038071153187
-0.009795,1.300780118823503,3.793573065515011
-0.009792500000000001,1.302582366036596,3.793821900101905
-0.00979,1.303465099365459,3.794120501606178
-0.009787499999999999,1.304286531768706,3.794705262885381
-0.009785,1.30521830583806,3.794854563637517
-0.0097825,1.306775349348691,3.794717704614725
-0.00978,1.307694863232922,3.794618170779968
-0.0097775,1.309129304892324,3.795115839953756
-0.009775000000000001,1.310882511364923,3.796160945218713
-0.0097725,1.31177750487891,3.796559080557744
-0.009769999999999999,1.312329213209449,3.796496871911022
-0.0097675,1.313015783576341,3.797989879432388
-0.009764999999999999,1.313972078015942,3.799246494096206
-0.0097625,1.315970488191004,3.801038103121846
-0.00976,1.317392669665282,3.802431576808455
-0.009757500000000001,1.318998753916406,3.804036559893924
-0.009755,1.320004089096499,3.804969689594778
-0.009752500000000001,1.322002499271561,3.806798623808453
-0.00975,1.322971053896285,3.808938601255745
-0.009747499999999999,1.324172552038347,3.810531142611871
-0.009745,1.325374050180409,3.81121543772583
-0.009742499999999999,1.327139516838133,3.812783095623266
-0.00974,1.327752526094287,3.813890409534946
-0.0097375,1.329137927013196,3.81527144149221
-0.009735000000000001,1.330535588117226,3.816503172697338
-0.0097325,1.331835167740274,3.817287001646056
-0.009730000000000001,1.333196048288936,3.817946413301326
-0.0097275,1.33452014828223,3.820198366312721
-0.009724999999999999,1.3353538408706,3.820646268569132
-0.0097225,1.336726981604385,3.821293238495057
-0.009719999999999999,1.337597454748124,3.821318121953746
-0.0097175,1.339019636222401,3.823084847520698
-0.009715,1.340024971402494,3.823955768574828
-0.009712500000000001,1.341312290840417,3.825038199027819
-0.00971,1.342244064909772,3.826431672714429
-0.009707500000000001,1.34362946582868,3.828459674597618
-0.009705,1.345260070450051,3.829641638885368
-0.009702499999999999,1.346314446370637,3.831756732873971
-0.0097,1.348227035249837,3.832615212198757
-0.0096975,1.349612436168746,3.834829840022118
-0.009695,1.349404013021653,3.836248197167416
-0.0096925,1.350789413940561,3.836434823107587
-0.009690000000000001,1.351905090786762,3.837915388899608
-0.0096875,1.353621516703994,3.83857480055488
-0.009684999999999999,1.355693487989795,3.838898285517843
-0.0096825,1.356453619467426,3.839644789278527
-0.009679999999999999,1.356993067612842,3.841249772363997
-0.0096775,1.357888061126826,3.843887418985077
-0.009675,1.359812910191151,3.844609039287071
-0.009672500000000001,1.361382213886906,3.845878095680233
-0.00967,1.362093304624045,3.846251347560575
-0.009667500000000001,1.363441924987583,3.848515742301314
-0.009665,1.364496300908169,3.849996308093337
-0.009662499999999999,1.365734579605601,3.851514199073394
-0.00966,1.366580532379093,3.852870347571969
-0.009657499999999999,1.368382779592186,3.853479992309861
-0.009655,1.36951071662351,3.85484858253778
-0.0096525,1.370847076801925,3.855396018628948
-0.009650000000000001,1.371766590686156,3.85640379870587
-0.0096475,1.373311374011665,3.857100535549175
-0.009645000000000001,1.373863082342204,3.858556217882507
-0.0096425,1.375383345297466,3.859029003597607
-0.009639999999999999,1.376327379551944,3.859439580665983
-0.0096375,1.377859902692329,3.860447360742906
-0.009634999999999999,1.37909818138976,3.86093258818735
-0.0096325,1.379711190645915,3.861703975406723
-0.00963,1.38080234712187,3.862002576910996
-0.009627500000000001,1.3823593906325,3.864167437816977
-0.009625,1.383352465627471,3.865511144586209
-0.009622500000000001,1.385154712840563,3.866083464136066
-0.00962,1.386699496166073,3.86661845849789
-0.009617499999999999,1.387753872086659,3.869977725420965
-0.009615,1.389494818374136,3.870375860759996
-0.0096125,1.390328510962505,3.87133387391954
-0.00961,1.391260285031859,3.872503396477944
-0.0096075,1.393332256317661,3.873710244224382
-0.009605000000000001,1.394141428535784,3.874170588210137
-0.0096025,1.396274700747201,3.876260798740051
-0.009599999999999999,1.39805242759005,3.877380554381077
-0.0095975,1.400026317394864,3.878164383329794
-0.009594999999999999,1.400774188687374,3.88062784574005
-0.0095925,1.403250746082235,3.882046202885348
-0.00959,1.404378683113559,3.883190841985063
-0.009587500000000001,1.405849905328329,3.885243727326943
-0.009585,1.406867500693545,3.886052439734349
-0.009582500000000001,1.407688933096791,3.887644981090473
-0.00958,1.408939471979346,3.888403926580502
-0.009577499999999999,1.410251311787517,3.890942039366826
-0.009575,1.411501850670071,3.891937377714404
-0.009572499999999999,1.413671903436857,3.893529919070529
-0.00957,1.414750799727688,3.893803637116113
-0.0095675,1.416356883978812,3.896105357044886
-0.009565000000000001,1.41746030063989,3.897884524341181
-0.0095625,1.418943783039783,3.899924967953717
-0.009560000000000001,1.419961378404998,3.901368208557705
-0.0095575,1.421849446913954,3.904615499916678
-0.009554999999999999,1.422977383945278,3.906892336386763
-0.0095525,1.424276963568324,3.907763257440894
-0.009549999999999999,1.425846267264079,3.909057197292745
-0.0095475,1.426949683925157,3.909368240526363
-0.009545,1.42744009133008,3.91020183639246
-0.009542500000000001,1.429279119098541,3.912951458577643
-0.00954,1.430615479276958,3.916335608959409
-0.009537500000000001,1.43102006538602,3.918264077007841
-0.009535,1.432993955190836,3.918500469865391
-0.009532499999999999,1.433839907964329,3.919931268740035
-0.00953,1.434783942218806,3.92013033640955
-0.0095275,1.436255164433576,3.922618682278495
-0.009525,1.437027556096331,3.922344964232911
-0.0095225,1.438498778311101,3.923775763107554
-0.009520000000000001,1.44000678108124,3.924808426643166
-0.0095175,1.441122457927441,3.925654464238608
-0.009514999999999999,1.442213614403396,3.926077483036329
-0.0095125,1.443868739395011,3.926463176646015
-0.009509999999999999,1.445401262535398,3.927570490557696
-0.0095075,1.446455638455982,3.928267227401
-0.009505,1.44672536252869,3.930096161614675
-0.009502500000000001,1.448490829186415,3.930133486802709
-0.0095,1.449054797702076,3.930830223646014
-0.009497500000000001,1.450526019916846,3.931987304475073
-0.009495,1.450808004174677,3.933953097711539
-0.009492499999999999,1.452830934719986,3.935159945457978
-0.00949,1.453529765272002,3.93598109959473
-0.009487499999999999,1.455405573595834,3.938295261252849
-0.009485,1.455564956002433,3.939713618398147
-0.0094825,1.456974877291588,3.940684073287035
-0.009480000000000001,1.458924246726157,3.941853595845439
-0.0094775,1.459990882831866,3.943869155999285
-0.009475000000000001,1.461535666157374,3.943906481187319
-0.0094725,1.461842170785451,3.94520042103917
-0.009469999999999999,1.462639082818452,3.946046458634612
-0.0094675,1.463632157813421,3.946880054500708
-0.009464999999999999,1.465042079102576,3.947912718036321
-0.0094625,1.466844326315669,3.950040253754269
-0.00946,1.467530896682562,3.951085359019225
-0.009457500000000001,1.469958413336932,3.952080697366803
-0.009455,1.470755325369933,3.954531718047714
-0.009452500000000001,1.472116205918594,3.95515380451495
-0.00945,1.472741475359872,3.956373093990733
-0.009447499999999999,1.474396600351489,3.957281340232898
-0.009445,1.47579426145552,3.957642150383895
-0.0094425,1.477069320708321,3.958848998130334
-0.00944,1.478491502182598,3.959197366551986
-0.0094375,1.480183407729585,3.961772804526344
-0.009435000000000001,1.480489912357661,3.963079186107539
-0.0094325,1.482476062347601,3.964310917312667
-0.009429999999999999,1.484266049375572,3.965480439871073
-0.0094275,1.485038441038326,3.967172515061955
-0.009424999999999999,1.486313500291127,3.969524001908108
-0.0094225,1.487269794730727,3.9711911936403
-0.00942,1.489096562314066,3.971987464318363
-0.009417500000000001,1.489893474347066,3.974463368457963
-0.009415,1.490996891008144,3.976677996281323
-0.009412500000000001,1.492909479887345,3.977884844027761
-0.00941,1.493694131735223,3.980124355309813
-0.009407499999999999,1.494491043768224,3.979751103429471
-0.009405,1.496035827093732,3.980671791400981
-0.009402499999999999,1.497629651159733,3.98256293426138
-0.0094,1.498340741896871,3.984379426745708
-0.0093975,1.500093948369472,3.986307894794141
-0.009395000000000001,1.500976681698334,3.986892656073342
-0.0093925,1.502202700210642,3.988099503819781
-0.009390000000000001,1.502582765949458,3.989343676754253
-0.0093875,1.504041727979105,3.991707605329752
-0.009384999999999999,1.505917536302938,3.993175729392429
-0.0093825,1.506800269631799,3.99515396435824
-0.009379999999999999,1.508479914993662,3.995825817742855
-0.0093775,1.50986531591257,3.997555218121772
-0.009375,1.511826945532264,3.997978236919492
-0.009372500000000001,1.512096669604971,3.998836716244278
-0.00937,1.512525776084279,3.999185084665931
-0.009367500000000001,1.513984738113926,4.000429257600402
-0.009365,1.514659048295696,4.002594118506385
-0.009362499999999999,1.516436775138544,4.002531909859662
-0.00936,1.518042859389667,4.003390389184448
-0.009357499999999999,1.520065789934975,4.004995372269918
-0.009355,1.520862701967976,4.006314195580458
-0.0093525,1.521990638999299,4.007682785808378
-0.009350000000000001,1.522922413068653,4.008902075284159
-0.0093475,1.524246513061947,4.011489954987863
-0.009344999999999999,1.525116986205686,4.012833661757095
-0.0093425,1.526747590827056,4.014152485067635
-0.009339999999999999,1.527838747303011,4.014986080933732
-0.0093375,1.528844082483103,4.016989199358232
-0.009335,1.530499207474719,4.017474426802676
-0.009332500000000001,1.531332900063089,4.01822093056336
-0.00933,1.532595699130767,4.02003742304769
-0.009327500000000001,1.535047736155383,4.02072171816165
-0.009325,1.535158077821491,4.021692173050538
-0.009322499999999999,1.536751901887493,4.022662627939427
-0.00932,1.537475252809755,4.023060763278457
-0.009317499999999999,1.539130377801371,4.023558432452247
-0.009315,1.53980468798314,4.02404365989669
-0.0093125,1.541226869457418,4.025250507643129
-0.009310000000000001,1.542440627784603,4.025175857267061
-0.0093075,1.544267395367943,4.025524225688713
-0.009305000000000001,1.545223689807543,4.027178975691561
-0.0093025,1.546437448134728,4.02749001892518
-0.009299999999999999,1.548178394422207,4.027390485090423
-0.0092975,1.550054202746038,4.028933259529167
-0.009294999999999999,1.551329261998839,4.029368720056233
-0.0092925,1.553057948101193,4.030799518930876
-0.00929,1.55387938050444,4.031794857278454
-0.009287500000000001,1.556024912900978,4.03465645502774
-0.009285,1.556601141601764,4.036448064053381
-0.009282500000000001,1.558194965667764,4.038488507665916
-0.00928,1.55956810640155,4.038413857289848
-0.009277499999999999,1.56155425639149,4.041872658047683
-0.009275,1.563074519346752,4.044945765195829
-0.009272499999999999,1.56529361285403,4.045754477603236
-0.00927,1.5664460702556,4.047645620463634
-0.0092675,1.56811345543234,4.049225720090414
-0.009265000000000001,1.568934887835586,4.050818261446538
-0.0092625,1.570075085052033,4.05298312235252
-0.009259999999999999,1.571485006341189,4.055210191905227
-0.0092575,1.572551642446896,4.057922488902377
-0.009254999999999999,1.57336081466502,4.059017361084713
-0.0092525,1.575837372059883,4.061207105449383
-0.00925,1.57678140631436,4.06272499642944
-0.009247500000000001,1.578019685011792,4.063894518987844
-0.009245,1.579196662783607,4.067863430648811
-0.009242500000000001,1.580594323887638,4.069530622381003
-0.00924,1.58234753036024,4.070214917494964
