Time (s),Channel 1 (V),Channel 2 (V)
-0.0256,2.061561178581754,4.628631649269956
-0.02559375,2.057883123044824,4.627387476335485
-0.0255875,2.049300993458671,4.624899130466538
-0.02558125,2.044396919409436,4.62614330340102
-0.025575,2.037040808335586,4.627387476335486
-0.02556875,2.029684697261733,4.623654957532069
-0.0255625,2.023554604700192,4.621166611663121
-0.02555625,2.018650530650959,4.621166611663121
-0.02555,2.011294419577111,4.616189919925234
-0.02554375,2.003938308503261,4.587573942432364
-0.0255375,1.999034234454028,4.550248754398191
-0.02553125,1.995356178917097,4.551492927332673
-0.025525,1.984322012306325,4.552737100267138
-0.02551875,1.978191919744787,4.551492927332672
-0.0255125,1.978191919744787,4.553981273201608
-0.02550625,1.969609790158627,4.555225446136089
-0.0255,1.961027660572467,4.556469619070555
-0.02549375,1.956123586523234,4.553981273201608
-0.0254875,1.949993493961695,4.555225446136089
-0.02548125,1.943863401400151,4.556469619070556
-0.025475,1.936507290326303,4.52536529570875
-0.02546875,1.93528127181399,4.466889167788536
-0.0254625,1.931603216277068,4.46315664898512
-0.02545625,1.925473123715524,4.461912476050654
-0.02545,1.915664975617061,4.464400821919591
-0.02544375,1.90830886454321,4.46315664898512
-0.0254375,1.902178771981665,4.461912476050655
-0.02543125,1.897274697932432,4.46315664898512
-0.025425,1.888692568346273,4.461912476050654
-0.02541875,1.880110438760114,4.46315664898512
-0.0254125,1.87643238322319,4.460668303116173
-0.02540625,1.870302290661646,4.443249882033549
-0.0254,1.860494142563183,4.403436348130442
-0.02539375,1.851912012977024,4.39348296465466
-0.0253875,1.842103864878557,4.394727137589141
-0.02538125,1.837199790829326,4.397215483458077
-0.025375,1.834747753804707,4.398459656392557
-0.02536875,1.826165624218548,4.400948002261495
-0.0253625,1.8188095131447,4.399703829327025
-0.02535625,1.815131457607776,4.398459656392558
-0.02535,1.807775346533925,4.402192175195975
-0.02534375,1.805323309509307,4.403436348130441
-0.0253375,1.796741179923147,4.388506272916772
-0.02533125,1.788159050336988,4.354913603686016
-0.025325,1.784480994800064,4.337495182603399
-0.02531875,1.778350902238524,4.337495182603399
-0.0253125,1.768542754140061,4.337495182603399
-0.02530625,1.761186643066206,4.338739355537879
-0.0253,1.753830531992355,4.339983528472346
-0.02529375,1.747700439430815,4.338739355537879
-0.0252875,1.741570346869272,4.339983528472346
-0.02528125,1.73176219877081,4.33625100966893
-0.025275,1.725632106209262,4.335006836734462
-0.02526875,1.719502013647723,4.32380928032421
-0.0252625,1.709693865549255,4.275286535879784
-0.02525625,1.702337754475407,4.235473001976659
-0.02525,1.69498164340156,4.239205520780074
-0.02524375,1.687625532327705,4.235473001976659
-0.0252375,1.681495439766165,4.232984656107712
-0.02523125,1.674139328692315,4.234228829042192
-0.025225,1.663105162081537,4.23671717491113
-0.02521875,1.658201088032306,4.23671717491113
-0.0252125,1.650844976958453,4.23671717491113
-0.02520625,1.643488865884606,4.23671717491113
-0.0252,1.636132754810754,4.230496310238775
-0.02519375,1.630002662249211,4.198147813942485
-0.0251875,1.623872569687675,4.157090107104912
-0.02518125,1.614064421589205,4.154601761235947
-0.025175,1.606708310515354,4.157090107104893
-0.02516875,1.599352199441503,4.160822625908311
-0.0251625,1.591996088367652,4.158334280039364
-0.02515625,1.585865995806115,4.159578452973843
-0.02515,1.579735903244569,4.160822625908311
-0.02514375,1.568701736633797,4.159578452973844
-0.0251375,1.561345625559946,4.162066798842782
-0.02513125,1.557667570023019,4.160822625908311
-0.025125,1.550311458949172,4.133450821349935
-0.02511875,1.549085440436861,4.083683903971016
-0.0251125,1.541729329363009,4.083683903971016
-0.02510625,1.529469144239927,4.082439731036545
-0.0251,1.520887014653768,4.078707212233128
-0.02509375,1.511078866555307,4.076218866364182
-0.0250875,1.503722755481452,4.076218866364181
-0.02508125,1.496366644407601,4.07497469342971
-0.025075,1.486558496309135,4.072486347560764
-0.02506875,1.47552432969836,4.072486347560764
-0.0250625,1.469394237136822,4.072486347560764
-0.02505625,1.458360070526042,4.048847061805788
-0.02505,1.449777940939883,3.995347625623479
-0.02504375,1.443647848378342,3.984150069213226
-0.0250375,1.433839700279876,3.985394242147692
-0.02503125,1.426483589206027,3.984150069213226
-0.025025,1.417901459619868,3.986638415082163
-0.02501875,1.40931933003371,3.985394242147692
-0.0250125,1.403189237472167,3.984150069213226
-0.02500625,1.3933810893737,3.986638415082163
-0.025,1.387250996812158,3.986638415082163
-0.02499375,1.379894885738309,3.986638415082163
-0.0249875,1.367634700615226,3.972952512802974
-0.02498125,1.361504608053684,3.9356273247688
-0.024975,1.35660053400445,3.915720557817233
-0.02496875,1.349244422930601,3.915720557817233
-0.0249625,1.34188831185675,3.915720557817233
-0.02495625,1.333306182270591,3.913232211948296
-0.02495,1.323498034172125,3.909499693144878
-0.02494375,1.316141923098273,3.911988039013815
-0.0249375,1.307559793512114,3.911988039013815
-0.02493125,1.297751645413645,3.911988039013815
-0.024925,1.2903955343398,3.911988039013815
-0.02491875,1.280587386241331,3.894569617931209
-0.0249125,1.265875164093631,3.837337662945467
-0.02490625,1.253614978970548,3.792547437304458
-0.0249,1.246258867896696,3.793791610238939
-0.02489375,1.238902756822847,3.795035783173404
-0.0248875,1.230320627236688,3.793791610238939
-0.02488125,1.221738497650533,3.798768301976822
-0.024875,1.216834423601298,3.802500820780239
-0.02486875,1.209478312527443,3.801256647845775
-0.0248625,1.202122201453598,3.803744993714711
-0.02485625,1.193540071867439,3.804989166649191
-0.02485,1.182505905256663,3.803744993714711
-0.02484375,1.176375812695121,3.786326572632104
-0.0248375,1.175149794182809,3.766419805680536
-0.02483125,1.164115627572038,3.766419805680536
-0.024825,1.154307479473573,3.763931459811599
-0.02481875,1.145725349887414,3.758954768073703
-0.0248125,1.135917201788947,3.758954768073703
-0.02480625,1.127335072202783,3.758954768073702
-0.0248,1.116300905592013,3.75771059513923
-0.02479375,1.106492757493547,3.755222249270285
-0.0247875,1.097910627907388,3.755222249270285
-0.02478125,1.088102479808922,3.755222249270285
-0.024775,1.07706831319814,3.700478640153454
-0.02476875,1.062356091050446,3.592235594854399
-0.0247625,1.054999979976595,3.595968113657816
-0.02475625,1.048869887415052,3.598456459526754
-0.02475,1.041513776341204,3.598456459526754
-0.02474375,1.029253591218117,3.599700632461235
-0.0247375,1.021897480144269,3.602188978330171
-0.02473125,1.013315350558111,3.602188978330171
-0.024725,1.002281183947337,3.602188978330171
-0.02471875,0.993699054361178,3.603433151264651
-0.0247125,0.9875689617996332,3.605921497133578
-0.02470625,0.9802128507257849,3.582282211378612
-0.0247,0.9765347951888613,3.531271121065241
-0.02469375,0.9642746100657783,3.523806083458406
-0.0246875,0.9532404434550018,3.522561910523934
-0.02468125,0.9471103508934559,3.521317737589468
-0.024675,0.9373022027949938,3.521317737589468
-0.02466875,0.9299460917211425,3.516341045851572
-0.0246625,0.9189119251103672,3.51758521878605
-0.02465625,0.9054257214749767,3.518829391720516
-0.02465,0.89929562891343,3.516341045851572
-0.02464375,0.8882614623026587,3.516341045851572
-0.0246375,0.8796793327164998,3.501410970637902
-0.02463125,0.8747752586672679,3.464085782603728
-0.024625,0.8649671105688006,3.447911534455586
-0.02461875,0.8527069254457127,3.444179015652168
-0.0246125,0.8441247958595575,3.442934842717702
-0.02460625,0.834316647761092,3.444179015652168
-0.0246,0.826960536687241,3.441690669783223
-0.02459375,0.8196044256133916,3.441690669783223
-0.0245875,0.8097962775149293,3.440446496848751
-0.02458125,0.7975360923918415,3.439202323914285
-0.024575,0.7901799813179907,3.442934842717702
-0.02456875,0.7791458147072159,3.426760594569554
-0.0245625,0.7644335925595156,3.363307774911458
-0.02455625,0.7570774814856692,3.312296684598116
-0.02455,0.748495351899507,3.314785030467032
-0.02454375,0.7374611852887323,3.313540857532559
-0.0245375,0.7276530371902651,3.311052511663615
-0.02453125,0.7190709076041063,3.313540857532559
-0.024525,0.7092627595056449,3.317273376335975
-0.02451875,0.7006806299194818,3.314785030467032
-0.0245125,0.6908724818210144,3.31602920340151
-0.02450625,0.6822903522348557,3.31851754927045
-0.0245,0.6724822041363896,3.309808338729141
-0.02449375,0.6651260930625428,3.263773940153687
-0.0244875,0.6577699819886892,3.205297812233454
-0.02448125,0.6479618338902217,3.204053639298988
-0.024475,0.6369276672794475,3.206541985167927
-0.02446875,0.6295715562055972,3.206541985167927
-0.0244625,0.6185373895948262,3.206541985167927
-0.02445625,0.6111812785209709,3.207786158102405
-0.02445,0.5964690563732721,3.209030331036872
-0.02444375,0.585434889762496,3.206541985167927
-0.0244375,0.5793047972009545,3.206541985167927
-0.02443125,0.5694966491024916,3.205297812233455
-0.024425,0.5621405380286371,3.179170180609533
-0.02441875,0.5523323899301712,3.13189160909958
-0.0244125,0.5412982233193951,3.13189160909958
-0.02440625,0.5351681307578534,3.130647436165107
-0.0244,0.5241339641470841,3.12940326323064
-0.02439375,0.5130997975363032,3.130647436165107
-0.0243875,0.5020656309255286,3.130647436165107
-0.02438125,0.4922574828270608,3.134379954968524
-0.024375,0.4836753532409024,3.130647436165107
-0.02436875,0.4738672051424409,3.12940326323064
-0.0243625,0.4652850755562775,3.133135782034057
-0.02435625,0.4554769274578104,3.089589729327515
-0.02435,0.4456687793593443,2.987567548700778
-0.02434375,0.4321825757239527,2.966416608814741
-0.0243375,0.4236004461377976,2.965172435880274
-0.02433125,0.4162443350639435,2.968904954683691
-0.024325,0.4027581314285519,2.970149127618158
-0.02431875,0.3941760018423929,2.966416608814741
-0.0243125,0.3868198907685428,2.963928262945797
-0.02430625,0.3745597056454653,2.96641660881474
-0.0243,0.3659775760593009,2.971393300552632
-0.02429375,0.3561694279608345,2.971393300552632
-0.0242875,0.3488133168869842,2.951486533601071
-0.02428125,0.3390051687885174,2.902963789156645
-0.024275,0.3267449836654391,2.88554536807404
-0.02426875,0.3181628540792757,2.885545368074032
-0.0242625,0.3071286874685003,2.884301195139558
-0.02425625,0.2973205393700336,2.881812849270615
-0.02425,0.2899644282961834,2.881812849270615
-0.02424375,0.280156280197716,2.881812849270615
-0.0242375,0.2666700765623244,2.88305702220509
-0.02423125,0.2568619284638576,2.885545368074032
-0.024225,0.2482797988776989,2.885545368074032
-0.02421875,0.2396976692915409,2.875591984598255
-0.0242125,0.2335675767299991,2.840755142433023
-0.02420625,0.2225334101192241,2.812139164940159
-0.0242,0.2127252620207572,2.814627510809101
-0.02419375,0.2041431324345986,2.812139164940159
-0.0241875,0.191882947311515,2.808406646136742
-0.02418125,0.1796227621884316,2.80965081907121
-0.024175,0.1710406326022686,2.807162473202267
-0.02416875,0.1612324845038061,2.807162473202267
-0.0241625,0.153876373429956,2.807162473202267
-0.02415625,0.1440682253314893,2.805918300267793
-0.02415,0.1318080402084058,2.793476570923072
-0.02414375,0.1232259106222423,2.732512097133882
-0.0241375,0.1121917440114721,2.650396683458737
-0.02413125,0.1036096144253137,2.649152510524261
-0.024125,0.09625350335146354,2.647908337589794
-0.02411875,0.08276729971607159,2.650396683458737
-0.0241125,0.07295915161760033,2.650396683458737
-0.02410625,0.06315100351913813,2.650396683458737
-0.0241,0.0508908183960545,2.650396683458737
-0.02409375,0.04230868880989606,2.651640856393211
-0.0240875,0.03250054071142923,2.652885029327679
-0.02408125,0.02391841112526523,2.649152510524243
-0.024075,0.01165822600218728,2.60809480368667
-0.02406875,0.0006240593914121152,2.53095608174938
-0.0240625,-0.00550603317012969,2.529711908814904
-0.02405625,-0.01654019978090485,2.528467735880437
-0.02405,-0.02757436639168505,2.529711908814904
-0.02404375,-0.03860853300245522,2.528467735880437
-0.0240375,-0.04841668110092205,2.53095608174938
-0.02403125,-0.05454677366246392,2.53095608174938
-0.024025,-0.06190288473631389,2.53095608174938
-0.02401875,-0.07538908837171031,2.53095608174938
-0.0240125,-0.08519723647017263,2.53095608174938
-0.02400625,-0.09255334754402263,2.523491044142545
-0.024,-0.1011354771301812,2.504828450125458
-0.02399375,-0.1109436252286481,2.498607585453097
-0.0239875,-0.1195257548148115,2.499851758387563
-0.02398125,-0.1305599214255817,2.497363412518623
-0.023975,-0.1415940880363566,2.497363412518623
-0.02396875,-0.1538542731594405,2.497363412518623
-0.0239625,-0.1648884397702154,2.497363412518623
-0.02395625,-0.1722445508440712,2.496119239584147
-0.02395,-0.1845047359671491,2.49487506664968
-0.02394375,-0.1918608470409993,2.497363412518623
-0.0239375,-0.2016689951394658,2.461282397418923
-0.02393125,-0.2151551987748579,2.367969427333488
-0.023925,-0.2249633468733288,2.324423374626946
-0.02391875,-0.233545476459483,2.323179201692479
-0.0239125,-0.2445796430702583,2.326911720495897
-0.02390625,-0.2543877911687251,2.330644239299314
-0.0239,-0.2629699207548837,2.331888412233782
-0.02389375,-0.2727780688533543,2.32940006636484
-0.0238875,-0.2813601984395092,2.328155893430364
-0.02388125,-0.2923943650502845,2.325667547561423
-0.023875,-0.303428531661059,2.328155893430364
-0.02386875,-0.3132366797595264,2.311981645282227
-0.0238625,-0.3218188093456893,2.242307960951739
-0.02385625,-0.3328529759564596,2.187564351834979
-0.02385,-0.3426611240549264,2.187564351834979
-0.02384375,-0.3524692721533936,2.187564351834979
-0.0238375,-0.364729457276477,2.190052697703921
-0.02383125,-0.3733115868626399,2.195029389441813
-0.023825,-0.3831197349611024,2.195029389441813
-0.02381875,-0.3917018645472606,2.195029389441813
-0.0238125,-0.4015100126457274,2.195029389441813
-0.02380625,-0.4088661237195776,2.196273562376287
-0.0238,-0.4174482533057319,2.191296870638398
-0.02379375,-0.427256401404203,2.152727509669746
-0.0237875,-0.4346125124780532,2.10420476522532
-0.02378125,-0.4444206605765199,2.101716419356378
-0.023775,-0.4566808456996038,2.102960592290851
-0.02376875,-0.4640369567734507,2.102960592290851
-0.0237625,-0.4738451048719199,2.099228073487434
-0.02375625,-0.4873313085073117,2.101716419356378
-0.02375,-0.4971394566057794,2.101716419356378
-0.02374375,-0.5057215861919377,2.101716419356378
-0.0237375,-0.5155297342903994,2.101716419356378
-0.02373125,-0.5228858453642541,2.100472246421903
-0.023725,-0.5339200119750299,2.048216983174059
-0.02371875,-0.5486322341227304,1.949927321350738
-0.0237125,-0.557214363708888,1.953659840154155
-0.02370625,-0.5682485303196589,1.956148186023098
-0.0237,-0.5780566784181298,1.9561481860231
-0.02369375,-0.5854127894919799,1.9561481860231
-0.0236875,-0.5927689005658301,1.957392358957573
-0.02368125,-0.6001250116396804,1.959880704826517
-0.023675,-0.6099331597381433,1.959880704826517
-0.02366875,-0.6209673263489222,1.959880704826517
-0.0236625,-0.6270974189104637,1.959880704826517
-0.02365625,-0.6356795484966222,1.939973937874954
-0.02365,-0.640583622545857,1.893939539299477
-0.02364375,-0.6491657521320106,1.880253637020282
-0.0236375,-0.6589739002304816,1.876521118216858
-0.02363125,-0.6687820483289491,1.874032772347917
-0.023625,-0.6810422334520322,1.874032772347917
-0.02361875,-0.690850381550498,1.872788599413441
-0.0236125,-0.7031105666735767,1.8703002535445
-0.02360625,-0.7104666777474329,1.870300253544499
-0.0236,-0.7202748258458989,1.870300253544499
-0.02359375,-0.7325350109689832,1.870300253544499
-0.0235875,-0.7423431590674496,1.849149313658467
-0.02358125,-0.7533773256782198,1.798138223345116
-0.023575,-0.7607334367520757,1.780719802262481
-0.02356875,-0.7729936218751586,1.779475629328006
-0.0235625,-0.7815757514613175,1.779475629328006
-0.02355625,-0.7913838995597832,1.783208148131423
-0.02355,-0.7999660291459382,1.781963975196955
-0.02354375,-0.808548158732101,1.783208148131423
-0.0235375,-0.8159042698059505,1.780719802262481
-0.02353125,-0.829390473441343,1.781963975196954
-0.023525,-0.8391986215398084,1.784452321065899
-0.02351875,-0.8477807511259634,1.763301381179876
-0.0235125,-0.8600409362490502,1.692383523914936
-0.02350625,-0.8723011213721346,1.635151568929202
-0.0235,-0.878431213933676,1.636395741863675
-0.02349375,-0.8845613064952192,1.63888408773262
-0.0234875,-0.8955954731059874,1.63888408773262
-0.02348125,-0.9054036212044612,1.63888408773262
-0.023475,-0.9139857507906182,1.640128260667092
-0.02346875,-0.9237938988890856,1.641372433601562
-0.0234625,-0.9323760284752447,1.640128260667092
-0.02345625,-0.9421841765737112,1.642616606536037
-0.02345,-0.9483142691352527,1.63888408773262
-0.02344375,-0.9519923246721765,1.610268110239753
-0.0234375,-0.9581224172337192,1.567966230467689
-0.02343125,-0.9691565838444945,1.566722057533214
-0.023425,-0.978964731942961,1.562989538729796
-0.02341875,-0.9875468615291189,1.559257019926379
-0.0234125,-0.9985810281398954,1.556768674057437
-0.02340625,-1.008389176238361,1.558012846991909
-0.0234,-1.01819732433683,1.559257019926379
-0.02339375,-1.030457509459913,1.555524501122961
-0.0233875,-1.037813620533766,1.554280328188492
-0.02338125,-1.047621768632228,1.556768674057437
-0.023375,-1.062333990779929,1.5132226213509
-0.02336875,-1.074594175903014,1.426130515937827
-0.0233625,-1.081950286976863,1.42861886180677
-0.02335625,-1.090532416563026,1.434839726479136
-0.02335,-1.100340564661488,1.438572245282551
-0.02334375,-1.10647065722303,1.441060591151497
-0.0233375,-1.112600749784571,1.442304764085969
-0.02333125,-1.122408897883039,1.444793109954915
-0.023325,-1.130991027469202,1.444793109954915
-0.02331875,-1.139573157055354,1.446037282889386
-0.0233125,-1.145703249616899,1.448525628758332
-0.02330625,-1.154285379203055,1.423642170068882
-0.0233,-1.159189453252289,1.370142733886566
-0.02329375,-1.167771582838452,1.361433523345256
-0.0232875,-1.177579730936914,1.358945177476314
-0.02328125,-1.186161860523072,1.357701004541839
-0.023275,-1.197196027133849,1.355212658672897
-0.02326875,-1.207004175232314,1.356456831607368
-0.0232625,-1.21436028630617,1.357701004541839
-0.02325625,-1.222942415892325,1.356456831607368
-0.02325,-1.232750563990791,1.357701004541839
-0.02324375,-1.24010667506464,1.355212658672897
-0.0232375,-1.247462786138491,1.335305891721335
-0.02323125,-1.256044915724656,1.28305062847348
-0.023225,-1.267079082335423,1.258167169784044
-0.02321875,-1.275661211921582,1.258167169784044
-0.0232125,-1.281791304483123,1.258167169784044
-0.02320625,-1.291599452581593,1.258167169784044
-0.0232,-1.300181582167755,1.258167169784044
-0.02319375,-1.309989730266217,1.258167169784044
-0.0231875,-1.318571859852376,1.259411342718515
-0.02318125,-1.328380007950842,1.260655515652987
-0.023175,-1.335736119024693,1.258167169784044
-0.02316875,-1.343092230098546,1.243237094570353
-0.0231625,-1.350448341172394,1.194714350125949
-0.02315625,-1.357804452246242,1.157389162091774
-0.02315,-1.366386581832401,1.157389162091774
-0.02314375,-1.376194729930868,1.157389162091774
-0.0231375,-1.383550841004723,1.157389162091774
-0.02313125,-1.392132970590878,1.157389162091774
-0.023125,-1.400715100177036,1.157389162091774
-0.02311875,-1.406845192738577,1.157389162091774
-0.0231125,-1.416653340837044,1.157389162091774
-0.02310625,-1.424009451910895,1.158633335026243
-0.0231,-1.431365562984743,1.154900816222828
-0.02309375,-1.437495655546286,1.123796492861018
-0.0230875,-1.443625748107826,1.086471304826844
-0.02308125,-1.453433896206293,1.086471304826844
-0.023075,-1.460790007280148,1.085227131892368
-0.02306875,-1.469372136866303,1.083982958957897
-0.0230625,-1.479180284964769,1.086471304826844
-0.02305625,-1.487762414550929,1.086471304826844
-0.02305,-1.496344544137087,1.086471304826844
-0.02304375,-1.501248618186317,1.08522713189237
-0.0230375,-1.50860472926017,1.082738786023426
-0.02303125,-1.517186858846329,1.082738786023426
-0.023025,-1.525768988432488,1.04043690625136
-0.02301875,-1.531899080994028,0.9570773196417052
-0.0230125,-1.542933247604798,0.9595656655106507
-0.02300625,-1.551515377190962,0.9595656655106518
-0.023,-1.557645469752502,0.9595656655106518
