Time (s),Channel 1 (V),Channel 2 (V)
-0.01024,-1.637459274903778,0.7990673569637022
-0.0102375,-1.636907566573239,0.802426623886778
-0.010235,-1.634149024920544,0.8063457686303698
-0.0102325,-1.632493899928929,0.8141840581175428
-0.01023,-1.62899974716885,0.8154904396987389
-0.0102275,-1.626425108293002,0.8162369434594223
-0.010225,-1.623850469417155,0.8156770656389097
-0.0102225,-1.620908024987616,0.8169834472201053
-0.01022,-1.61870119166546,0.8151171878183971
-0.0102175,-1.616862163896996,0.8149305618782284
-0.010215,-1.614471427797996,0.8195962103824981
-0.0102125,-1.61226459447584,0.8216490957243773
-0.01021,-1.608954344492609,0.8209025919636941
-0.0102075,-1.60840263616207,0.8250083626474533
-0.010205,-1.605644094509376,0.8272478739295037
-0.0102025,-1.602517747302989,0.8285542555106998
-0.0102,-1.599759205650297,0.8307937667927493
-0.0101975,-1.598287983435525,0.8309803927329211
-0.010195,-1.595161636229137,0.8322867743141187
-0.0101925,-1.591483580692214,0.8354594152970221
-0.01019,-1.590380164031136,0.8363925449978762
-0.0101875,-1.587805525155289,0.8360192931175346
-0.010185,-1.584863080725749,0.8414314453824898
-0.0101825,-1.581920636296211,0.8431110788440269
-0.01018,-1.580081608527747,0.8444174604252238
-0.0101775,-1.576403552990823,0.8490831089294935
-0.010175,-1.574932330776052,0.8539353833739382
-0.0101725,-1.572909400230742,0.8556150168354794
-0.01017,-1.570518664131742,0.8628934285021399
-0.0101675,-1.567208414148509,0.8664393213653865
-0.010165,-1.563714261388431,0.8707317179893165
-0.0101625,-1.563162553057892,0.8765171221346135
-0.01016,-1.559668400297815,0.8791298852970044
-0.0101575,-1.555990344760888,0.8806228928183726
-0.010155,-1.553783511438734,0.8796897631175187
-0.0101525,-1.551208872562885,0.8793165112371766
-0.01015,-1.547714719802806,0.8793165112371774
-0.0101475,-1.546427400364883,0.8809961446987143
-0.010145,-1.543484955935342,0.8834222819209356
-0.0101425,-1.542381539274265,0.8852885413226443
-0.01014,-1.540542511505802,0.88435541162179
-0.0101375,-1.537600067076264,0.8871548007243518
-0.010135,-1.53428981709303,0.890140815767087
-0.0101325,-1.531715178217181,0.8914471973482826
-0.01013,-1.528221025457103,0.890140815767087
-0.0101275,-1.526381997688639,0.8921937011089677
-0.010125,-1.523071747705408,0.8946198383311879
-0.0101225,-1.520497108829561,0.8998453646559723
-0.01012,-1.518841983837944,0.9018982499978518
-0.0101175,-1.515715636631558,0.900218616536314
-0.010115,-1.512589289425173,0.9030180056388758
-0.0101125,-1.510750261656709,0.9054441428610984
-0.01011,-1.507256108896629,0.9061906466217848
-0.0101075,-1.503578053359706,0.9127225545277623
-0.010105,-1.501371220037549,0.9160818214508404
-0.0101025,-1.498612678384857,0.9214939737157932
-0.0101,-1.496221942285856,0.9291456372627989
-0.0100975,-1.493831206186855,0.9345577895277517
-0.010095,-1.490520956203622,0.9392234380320259
-0.0100925,-1.489601442319391,0.946128597818345
-0.01009,-1.486107289559311,0.9478082312798859
-0.0100875,-1.484084359014002,0.9457553459380066
-0.010085,-1.482797039576079,0.9461285978183481
-0.0100825,-1.479486789592847,0.9453820940576646
-0.01008,-1.477647761824384,0.9457553459380064
-0.0100775,-1.475440928502229,0.9451954681174938
-0.010075,-1.471762872965306,0.9556465207670577
-0.0100725,-1.466797497990455,0.9569529023482586
-0.01007,-1.464958470221994,0.956579650467917
-0.0100675,-1.462935539676684,0.9647911918354352
-0.010065,-1.46109651190822,0.9718829775619298
-0.0100625,-1.458337970255527,0.9752422444850039
-0.01006,-1.454843817495449,0.9771085038867126
-0.0100575,-1.452636984173294,0.9763620001260291
-0.010055,-1.450062345297446,0.9799078929892756
-0.0100525,-1.44840722030583,0.983080533972179
-0.01005,-1.447119900867906,0.9847601674337183
-0.0100475,-1.445464775876288,0.9843869155533785
-0.010045,-1.441235012008826,0.9886793121773065
-0.0100425,-1.438844275909824,0.9894258159379903
-0.01004,-1.437373053695055,0.9899856937585026
-0.0100375,-1.434798414819207,0.995211220083287
-0.010035,-1.432775484273898,0.9993169907670462
-0.0100325,-1.431672067612821,1.002676257690122
-0.01003,-1.42836181762959,1.010887799057636
-0.0100275,-1.426338887084279,1.014060440040545
-0.010025,-1.423028637101046,1.01891271448499
-0.0100225,-1.421005706555738,1.025257996450797
-0.01002,-1.418431067679889,1.026191126151651
-0.0100175,-1.416224234357735,1.026191126151651
-0.010015,-1.413833498258734,1.027870759613189
-0.0100125,-1.413465692705041,1.027497507732848
-0.01001,-1.409971539944963,1.026751003972164
-0.0100075,-1.406477387184885,1.024884744570456
-0.010005,-1.405006164970114,1.027310881792677
-0.0100025,-1.402615428871112,1.03011027089524
-0.01,-1.399672984441573,1.030296896835411
-0.009997499999999999,-1.398569567780495,1.03234978217729
-0.009995,-1.395259317797263,1.036268926920878
-0.0099925,-1.392868581698261,1.043360712647372
-0.009990000000000001,-1.389006623384492,1.04541359798925
-0.0099875,-1.387167595616027,1.045600223929422
-0.009985000000000001,-1.38514466507072,1.047093231450788
-0.0099825,-1.382018317864333,1.049146116792669
-0.009979999999999999,-1.380179290095869,1.048772864912327
-0.0099775,-1.377052942889484,1.048772864912327
-0.009974999999999999,-1.373742692906251,1.057171032220016
-0.0099725,-1.370800248476711,1.058477413801212
-0.00997,-1.369329026261941,1.058290787861041
-0.009967500000000001,-1.366570484609249,1.062023306664457
-0.009965,-1.363628040179707,1.066502329228559
-0.009962499999999999,-1.363076331849167,1.068368588630272
-0.00996,-1.359949984642782,1.076766755937957
-0.009957499999999999,-1.356271929105855,1.08124577850206
-0.009955,-1.35222606801524,1.084605045425134
-0.0099525,-1.350754845800469,1.09244333491231
-0.009950000000000001,-1.348364109701468,1.093376464613165
-0.0099475,-1.345053859718236,1.09225670897214
-0.009945000000000001,-1.343766540280313,1.091323579271286
-0.0099425,-1.341191901404464,1.093003212732823
-0.009939999999999999,-1.339904581966539,1.091696831151627
-0.0099375,-1.336410429206462,1.091510205211456
-0.009934999999999999,-1.332732373669536,1.098975242818292
-0.0099325,-1.331445054231613,1.100468250339658
-0.00993,-1.327399193140995,1.101774631920854
-0.009927500000000001,-1.324272845934609,1.111479180809739
-0.009925,-1.322801623719839,1.115025073672986
-0.009922500000000001,-1.322066012612454,1.116891333074693
-0.00992,-1.31783624874499,1.117824462775549
-0.009917499999999999,-1.313974290431219,1.116518081194354
-0.009915,-1.313974290431219,1.120437225937941
-0.009912499999999999,-1.311399651555371,1.124729622561871
-0.00991,-1.307905498795292,1.1245429966217
-0.0099075,-1.305882568249984,1.123983118801188
-0.009905000000000001,-1.303859637704676,1.128648767305457
-0.0099025,-1.300733290498289,1.131074904527681
-0.009900000000000001,-1.298710359952981,1.131448156408022
-0.0098975,-1.296871332184517,1.135553927091781
-0.009894999999999999,-1.292089859986515,1.140779453416567
-0.0098925,-1.291905957209668,1.1437654684593
-0.009889999999999999,-1.288779610003282,1.148617742903742
-0.0098875,-1.28694058223482,1.153470017348185
-0.009885,-1.284733748912665,1.155522902690065
-0.009882500000000001,-1.281239596152588,1.162801314356725
-0.00988,-1.278664957276738,1.163547818117412
-0.009877500000000001,-1.274802998962969,1.165600703459291
-0.009875,-1.273515679525043,1.163547818117412
-0.009872499999999999,-1.272044457310272,1.164294321878095
-0.00987,-1.269285915657579,1.163734444057583
-0.0098675,-1.265240054566962,1.162987940296899
-0.009865000000000001,-1.263217124021653,1.170639603843905
-0.0098625,-1.261561999030037,1.170826229784076
-0.009860000000000001,-1.259171262931037,1.170079726023393
-0.0098575,-1.257332235162573,1.173252367006297
-0.009854999999999999,-1.254757596286724,1.177171511749888
-0.0098525,-1.251815151857186,1.182023786194328
-0.009849999999999999,-1.249976124088722,1.182583664014841
-0.0098475,-1.247953193543414,1.183516793715695
-0.009845,-1.245010749113874,1.186502808758429
-0.009842500000000001,-1.24225220746118,1.189302197860992
-0.00984,-1.240964888023256,1.190421953502017
-0.009837500000000001,-1.237654638040025,1.19098183132253
-0.009835,-1.234344388056791,1.195087602006289
-0.009832499999999999,-1.232505360288327,1.194527724185777
-0.00983,-1.228275596420865,1.195834105766973
-0.009827499999999999,-1.226620471429247,1.197513739228511
-0.009825,-1.224045832553401,1.198633494869536
-0.0098225,-1.222574610338631,1.20180613585244
-0.009820000000000001,-1.222022902008093,1.204792150895173
-0.0098175,-1.219264360355399,1.206658410296883
-0.009815000000000001,-1.215586304818475,1.206285158416541
-0.0098125,-1.213011665942626,1.207404914057566
-0.009809999999999999,-1.211356540951009,1.207031662177225
-0.0098075,-1.208230193744623,1.20815141781825
-0.009804999999999999,-1.204368235430852,1.210017677219959
-0.0098025,-1.201977499331851,1.208711295638763
-0.0098,-1.199402860456003,1.207591539997737
-0.009797500000000001,-1.197563832687542,1.208524669698591
-0.009795,-1.192966263266385,1.214310073843889
-0.009792500000000001,-1.189472110506307,1.219535600168671
-0.00979,-1.188368693845228,1.218415844527648
-0.009787499999999999,-1.184874541085148,1.225321004313973
-0.009785,-1.181380388325071,1.230733156578925
-0.0097825,-1.178805749449223,1.236705186664393
-0.00978,-1.175495499465991,1.23819819418576
-0.0097775,-1.172001346705912,1.236891812604564
-0.009775000000000001,-1.169794513383758,1.239691201707126
-0.0097725,-1.169794513383757,1.245476605852424
-0.009769999999999999,-1.165564749516292,1.247156239313961
-0.0097675,-1.163541818970984,1.246036483672937
-0.009764999999999999,-1.161886693979366,1.251635261878065
-0.0097625,-1.15784083288875,1.255554406621651
-0.00976,-1.155633999566595,1.255927658501993
-0.009757500000000001,-1.152507652360209,1.263765947989169
-0.009755,-1.151036430145439,1.271044359655833
-0.009752500000000001,-1.1480939857159,1.275523382219932
-0.00975,-1.143864221848435,1.284108175467794
-0.009747499999999999,-1.141289582972587,1.293066220595999
-0.009745,-1.139634457980971,1.300531258202831
-0.009742499999999999,-1.137243721881968,1.311168936792573
-0.00974,-1.133933471898737,1.315647959356671
-0.0097375,-1.131542735799736,1.313968325895134
-0.009735000000000001,-1.130439319138659,1.314154951835304
-0.0097325,-1.128968096923888,1.314154951835304
-0.009730000000000001,-1.125290041386965,1.313968325895134
-0.0097275,-1.123634916395347,1.312661944313937
-0.009724999999999999,-1.121611985850038,1.31732759281821
-0.0097225,-1.120324666412114,1.31956710410026
-0.009719999999999999,-1.11664661087519,1.320873485681456
-0.0097175,-1.113152458115111,1.324606004484873
-0.009715,-1.11223294423088,1.327592019527607
-0.009712500000000001,-1.10837098591711,1.331137912390852
-0.00971,-1.106899763702339,1.331511164271195
-0.009707500000000001,-1.104509027603338,1.332257668031878
-0.009705,-1.101934388727489,1.334497179313929
-0.009702499999999999,-1.099727555405334,1.338229698117347
-0.0097,-1.098624138744257,1.338416324057518
-0.0096975,-1.094578277653639,1.339162827818201
-0.009695,-1.091268027670407,1.343828476322473
-0.0096925,-1.08961290267879,1.345134857903669
-0.009690000000000001,-1.087038263802944,1.346814491365206
-0.0096875,-1.08372801381971,1.348494124826745
-0.009684999999999999,-1.080785569390169,1.355399284613068
-0.0096825,-1.078762638844861,1.358012047775459
-0.009679999999999999,-1.075452388861628,1.36454395568144
-0.0096775,-1.073613361093166,1.36678346696349
-0.009675,-1.071774333324704,1.368649726365198
-0.009672500000000001,-1.06901579167201,1.376301389912204
-0.00967,-1.066625055573009,1.376861267732717
-0.009667500000000001,-1.062763097259239,1.376301389912204
-0.009665,-1.060740166713928,1.376861267732717
-0.009662499999999999,-1.059085041722311,1.377607771493401
-0.00966,-1.055958694515926,1.378167649313913
-0.009657499999999999,-1.054303569524308,1.377421145553231
-0.009655,-1.05136112509477,1.380407160595963
-0.0096525,-1.048786486218922,1.381153664356647
-0.009650000000000001,-1.045660139012537,1.381340290296818
-0.0096475,-1.043821111244073,1.387872198202798
-0.009645000000000001,-1.039407444599765,1.392351220766897
-0.0096425,-1.037200611277608,1.395710487689975
-0.009639999999999999,-1.035729389062837,1.396643617390828
-0.0096375,-1.033890361294376,1.394963983929291
-0.009634999999999999,-1.031683527972221,1.399629632433563
-0.0096325,-1.029476694650066,1.401869143715613
-0.00963,-1.026718152997372,1.403548777177151
-0.009627500000000001,-1.024327416898372,1.402429021536126
-0.009625,-1.021384972468831,1.409894059142961
-0.009622500000000001,-1.019913750254061,1.411760318544669
-0.00962,-1.015867889163443,1.411760318544669
-0.009617499999999999,-1.013844958618134,1.418478852390822
-0.009615,-1.012925444733903,1.420718363672871
-0.0096125,-1.011270319742287,1.421651493373726
-0.00961,-1.008327875312747,1.427436897519023
-0.0096075,-1.005569333660053,1.431729294142953
-0.009605000000000001,-1.002994694784207,1.437514698288247
-0.0096025,-1.000236153131512,1.444233232134401
-0.009599999999999999,-0.9976615142556631,1.447219247177135
-0.0095975,-0.9956385837103552,1.447219247177135
-0.009594999999999999,-0.9917766253965835,1.445539613715597
-0.0095925,-0.9910410142891989,1.445912865595939
-0.00959,-0.9877307643059663,1.446659369356622
-0.009587500000000001,-0.9840527087690412,1.446659369356622
-0.009585,-0.9809263615626549,1.451325017860894
-0.009582500000000001,-0.9803746532321163,1.452631399442089
-0.00958,-0.9785356254636536,1.453191277262603
-0.009577499999999999,-0.9770644032488821,1.457670299826705
-0.009575,-0.9744897643730359,1.460656314869438
-0.009572499999999999,-0.9715473199434947,1.463642329912171
-0.00957,-0.9691565838444948,1.463455703972001
-0.0095675,-0.9649268199770308,1.464575459613026
-0.009565000000000001,-0.9630877922085693,1.466814970895075
-0.0095625,-0.9610648616632597,1.471107367519006
-0.009560000000000001,-0.9586741255642593,1.473906756621568
-0.0095575,-0.9566511950189496,1.472413749100202
-0.009554999999999999,-0.953340945035716,1.478759031066012
-0.0095525,-0.9509502089367157,1.479878786707037
-0.009549999999999999,-0.9469043478460982,1.478945657006183
-0.0095475,-0.9448814173007893,1.485290938971992
-0.009545,-0.943778000639712,1.489769961536093
-0.009542500000000001,-0.9432262923091733,1.493129228459167
-0.00954,-0.9393643339954018,1.496861747262586
-0.009537500000000001,-0.9373414034500938,1.501154143886514
-0.009535,-0.9336633479131677,1.504886662689934
-0.009532499999999999,-0.9318243201447047,1.509925563074547
-0.00953,-0.9303530979299355,1.509925563074547
-0.0095275,-0.9266750423930104,1.510858692775402
-0.009525,-0.9244682090708553,1.511605196536085
-0.0095225,-0.9231808896329315,1.51048544089506
-0.009520000000000001,-0.9180316118812387,1.511231944655743
-0.0095175,-0.9163764868896201,1.512538326236939
-0.009514999999999999,-0.9128823341295407,1.519443486023262
-0.0095125,-0.9110433063610788,1.52130974542497
-0.009509999999999999,-0.9084686674852297,1.520749867604461
-0.0095075,-0.9047906119483062,1.528401531151463
-0.009505,-0.9022159730724587,1.533253805595906
-0.009502500000000001,-0.8996413341966111,1.535679942818127
-0.0095,-0.8968827925439173,1.538292705980519
-0.009497500000000001,-0.8944920564449172,1.539599087561715
-0.009495,-0.8932047370069922,1.540718843202741
-0.009492499999999999,-0.8898944870237587,1.542211850724109
-0.00949,-0.8876876537016045,1.545384491707013
-0.009487499999999999,-0.884745209272063,1.544824613886502
-0.009485,-0.8812510565119858,1.550236766151455
-0.0094825,-0.8786764176361382,1.55340940713436
-0.009480000000000001,-0.8757339732065994,1.552849529313848
-0.0094775,-0.8731593343307505,1.558821559399315
-0.009475000000000001,-0.871320306562289,1.563487207903585
-0.0094725,-0.868377862132748,1.569459237989055
-0.009469999999999999,-0.8659871260337458,1.576364397775379
-0.0094675,-0.8635963899347455,1.581030046279649
-0.009464999999999999,-0.8599183343978206,1.583829435382212
-0.0094625,-0.8580793066293581,1.594840365852293
-0.00946,-0.8551368621998179,1.597639754954856
-0.009457500000000001,-0.8512749038860484,1.597079877134344
-0.009455,-0.8488841677870453,1.59633337337366
-0.009452500000000001,-0.847412945572276,1.596519999313831
-0.00945,-0.8452061122501202,1.595773495553148
-0.009447499999999999,-0.8433670844816561,1.595960121493321
-0.009445,-0.8400568344984253,1.601558899698444
-0.0094425,-0.8389534178373477,1.602118777518957
-0.00944,-0.8360109734078076,1.602305403459128
-0.0094375,-0.832700723424575,1.607904181664254
-0.009435000000000001,-0.8304938901024211,1.612383204228353
-0.0094325,-0.82902266788765,1.616675600852285
-0.009429999999999999,-0.8247929040201855,1.61555584521126
-0.0094275,-0.8225860706980314,1.61555584521126
-0.009424999999999999,-0.820747042929568,1.617608730553141
-0.0094225,-0.8194597234916449,1.621341249356557
-0.00942,-0.81578166795472,1.624327264399291
-0.009417500000000001,-0.8137587374094112,1.620967997476215
-0.009415,-0.8119197096409486,1.62843303508305
-0.009412500000000001,-0.8076899457734865,1.630112668544587
-0.00941,-0.8065865291124071,1.62843303508305
-0.009407499999999999,-0.8051153068976359,1.632912057647153
-0.009405,-0.8021728624680972,1.63701782833091
-0.009402499999999999,-0.7992304180385558,1.642429980595867
-0.0094,-0.7966557791627095,1.646909003159966
-0.0093975,-0.7946328486174006,1.653254285125775
-0.009395000000000001,-0.7935294319563236,1.657173429869362
-0.0093925,-0.7909547930804756,1.660346070852269
-0.009390000000000001,-0.7883801542046293,1.662025704313806
-0.0093875,-0.784702098667703,1.661465826493294
-0.009384999999999999,-0.7821274597918546,1.66277220807449
-0.0093825,-0.7802884320233929,1.66277220807449
-0.009379999999999999,-0.7769781820401604,1.661465826493294
-0.0093775,-0.7753230570485442,1.662398956194148
-0.009375,-0.7734840292800818,1.664265215595857
-0.009372500000000001,-0.7709093904042355,1.666131474997565
-0.00937,-0.7668635293136166,1.666318100937736
-0.009367500000000001,-0.7659440154293857,1.673223260724056
-0.009365,-0.7633693765535379,1.67788890922833
-0.009362499999999999,-0.759875223793457,1.68180805397192
-0.00936,-0.7552776543723027,1.684794069014653
-0.009357499999999999,-0.7539903349343788,1.684794069014653
-0.009355,-0.7528869182733013,1.687780084057386
-0.0093525,-0.74902495995953,1.691325976920633
-0.009350000000000001,-0.7468181266373759,1.693378862262512
-0.0093475,-0.7433239738772961,1.693565488202684
-0.009344999999999999,-0.7409332377782942,1.700097396108665
-0.0093425,-0.739645918340371,1.702523533330885
-0.009339999999999999,-0.7352322516960598,1.701777029570205
-0.0093375,-0.7324737100433674,1.708868815296695
-0.009335,-0.7302668767212124,1.714467593501821
-0.009332500000000001,-0.7275083350685184,1.717640234484726
-0.00933,-0.7240141823084397,1.724732020211219
-0.009327500000000001,-0.7212556406557472,1.729024416835147
-0.009325,-0.7173936823419746,1.733130187518908
-0.009322499999999999,-0.7159224601272033,1.73966209542489
-0.00932,-0.7129800156976646,1.74208823264711
-0.009317499999999999,-0.7115087934828933,1.741714980766767
-0.009315,-0.7087502518302007,1.740408599185572
-0.0093125,-0.7059917101775068,1.74003534730523
-0.009310000000000001,-0.7030492657479667,1.739475469484718
-0.0093075,-0.7008424324258117,1.740595225125743
-0.009305000000000001,-0.6997390157647347,1.748060262732574
-0.0093025,-0.6982677935499642,1.748433514612919
-0.009299999999999999,-0.6947736407898839,1.74787363679241
-0.0092975,-0.6916472935834991,1.754032292818045
-0.009294999999999999,-0.6898082658150363,1.757391559741121
-0.0092925,-0.6876014324928816,1.761310704484709
-0.00929,-0.6841072797328028,1.761683956365051
-0.009287500000000001,-0.6830038630717258,1.76149733042488
-0.009285,-0.679141904757954,1.763176963886418
-0.009282500000000001,-0.6776706825431846,1.766722856749663
-0.00928,-0.675463849221029,1.766722856749665
-0.009277499999999999,-0.6725214047914883,1.767096108630008
-0.009275,-0.6710501825767189,1.770455375553082
-0.009272499999999999,-0.6682916409240252,1.770268749612911
-0.00927,-0.6664526131555626,1.770828627433424
